# AreTomo Alignment / Priims bprmMn 
# RawSize = 512 512 61
# NumPatches = 0
# SEC     ROT         GMAG       TX          TY      SMEAN     SFIT    SCALE     BASE     TILT
   60     0.0100    1.00000     -4.002     -2.015     1.00     1.00     1.00     0.00    -59.99
   59     0.0100    1.00000     -4.117      0.703     1.00     1.00     1.00     0.00    -57.99
   58     0.0100    1.00000     -4.129     -1.456     1.00     1.00     1.00     0.00    -55.99
   57     0.0100    1.00000     -3.576     -0.458     1.00     1.00     1.00     0.00    -53.99
   56     0.0100    1.00000     -4.044     -0.029     1.00     1.00     1.00     0.00    -51.99
   55     0.0100    1.00000     -3.087     -2.553     1.00     1.00     1.00     0.00    -49.99
   54     0.0100    1.00000     -3.795     -0.877     1.00     1.00     1.00     0.00    -47.99
   53     0.0100    1.00000     -3.105     -2.076     1.00     1.00     1.00     0.00    -45.99
   52     0.0100    1.00000     -2.117     -1.224     1.00     1.00     1.00     0.00    -43.99
   51     0.0100    1.00000     -2.577      0.307     1.00     1.00     1.00     0.00    -41.99
   50     0.0100    1.00000     -3.644      0.000     1.00     1.00     1.00     0.00    -39.99
   49     0.0100    1.00000     -4.062     -3.961     1.00     1.00     1.00     0.00    -37.99
   48     0.0100    1.00000     -2.426     -0.125     1.00     1.00     1.00     0.00    -35.99
   47     0.0100    1.00000     -3.926     -0.622     1.00     1.00     1.00     0.00    -33.99
   46     0.0100    1.00000     -4.187     -0.671     1.00     1.00     1.00     0.00    -31.99
   45     0.0100    1.00000     -3.010     -0.253     1.00     1.00     1.00     0.00    -29.99
   44     0.0100    1.00000     -3.408     -2.855     1.00     1.00     1.00     0.00    -27.99
   43     0.0100    1.00000     -2.550     -1.885     1.00     1.00     1.00     0.00    -25.99
   42     0.0100    1.00000     -3.404     -2.266     1.00     1.00     1.00     0.00    -23.99
   41     0.0100    1.00000     -3.420     -1.080     1.00     1.00     1.00     0.00    -21.99
   40     0.0100    1.00000     -2.520     -2.150     1.00     1.00     1.00     0.00    -19.99
   39     0.0100    1.00000     -3.000     -0.858     1.00     1.00     1.00     0.00    -17.99
   38     0.0100    1.00000     -2.077     -0.559     1.00     1.00     1.00     0.00    -15.99
   37     0.0100    1.00000     -2.787     -2.240     1.00     1.00     1.00     0.00    -13.99
   36     0.0100    1.00000     -4.410     -0.958     1.00     1.00     1.00     0.00    -11.99
   35     0.0100    1.00000     -2.178     -2.134     1.00     1.00     1.00     0.00     -9.99
   34     0.0100    1.00000     -2.378     -1.076     1.00     1.00     1.00     0.00     -7.99
   33     0.0100    1.00000     -1.079     -1.238     1.00     1.00     1.00     0.00     -5.99
   32     0.0100    1.00000     -1.585     -1.131     1.00     1.00     1.00     0.00     -3.99
   31     0.0100    1.00000     -1.186     -0.837     1.00     1.00     1.00     0.00     -1.99
   30     0.0100    1.00000      0.000      0.000     1.00     1.00     1.00     0.00     -0.00
   29     0.0100    1.00000      2.275     -0.110     1.00     1.00     1.00     0.00      2.00
   28     0.0100    1.00000      0.800     -1.617     1.00     1.00     1.00     0.00      4.00
   27     0.0100    1.00000      0.160     -1.125     1.00     1.00     1.00     0.00      6.00
   26     0.0100    1.00000     -0.291     -0.536     1.00     1.00     1.00     0.00      8.00
   25     0.0100    1.00000      0.727      0.064     1.00     1.00     1.00     0.00     10.00
   24     0.0100    1.00000      1.728      1.505     1.00     1.00     1.00     0.00     12.00
   23     0.0100    1.00000      1.149      0.235     1.00     1.00     1.00     0.00     14.00
   22     0.0100    1.00000      2.942     -0.582     1.00     1.00     1.00     0.00     16.00
   21     0.0100    1.00000      1.242      1.417     1.00     1.00     1.00     0.00     18.00
   20     0.0100    1.00000      2.270      1.654     1.00     1.00     1.00     0.00     20.00
   19     0.0100    1.00000      2.211     -0.051     1.00     1.00     1.00     0.00     22.00
   18     0.0100    1.00000      4.277      2.763     1.00     1.00     1.00     0.00     24.00
   17     0.0100    1.00000      1.181      0.725     1.00     1.00     1.00     0.00     26.00
   16     0.0100    1.00000      3.467     -0.099     1.00     1.00     1.00     0.00     28.00
   15     0.0100    1.00000      3.099     -0.007     1.00     1.00     1.00     0.00     29.99
   14     0.0100    1.00000      4.055      0.283     1.00     1.00     1.00     0.00     32.00
   13     0.0100    1.00000      2.536      1.237     1.00     1.00     1.00     0.00     33.99
   12     0.0100    1.00000      2.756      0.025     1.00     1.00     1.00     0.00     35.99
   11     0.0100    1.00000      3.150      0.213     1.00     1.00     1.00     0.00     37.99
   10     0.0100    1.00000      4.548      1.128     1.00     1.00     1.00     0.00     39.99
    9     0.0100    1.00000      1.973      0.735     1.00     1.00     1.00     0.00     41.99
    8     0.0100    1.00000      3.425      2.274     1.00     1.00     1.00     0.00     43.99
    7     0.0100    1.00000      3.308      2.586     1.00     1.00     1.00     0.00     45.99
    6     0.0100    1.00000      3.610      0.500     1.00     1.00     1.00     0.00     47.99
    5     0.0100    1.00000      2.787      3.027     1.00     1.00     1.00     0.00     50.00
    4     0.0100    1.00000      2.061      1.312     1.00     1.00     1.00     0.00     52.00
    3     0.0100    1.00000      1.836      2.990     1.00     1.00     1.00     0.00     53.99
    2     0.0100    1.00000      2.624      0.771     1.00     1.00     1.00     0.00     55.99
    1     0.0100    1.00000     -0.160      1.889     1.00     1.00     1.00     0.00     58.00
    0     0.0100    1.00000      0.458      1.541     1.00     1.00     1.00     0.00     59.99
