# AreTomo Alignment / Priims bprmMn 
# RawSize = 512 512 61
# NumPatches = 0
# SEC     ROT         GMAG       TX          TY      SMEAN     SFIT    SCALE     BASE     TILT
   60     0.0100    1.00000      1.722     -3.594     1.00     1.00     1.00     0.00    -59.99
   59     0.0100    1.00000      1.105     -3.070     1.00     1.00     1.00     0.00    -57.99
   58     0.0100    1.00000      0.502     -2.996     1.00     1.00     1.00     0.00    -55.99
   57     0.0100    1.00000      0.056     -2.968     1.00     1.00     1.00     0.00    -53.99
   56     0.0100    1.00000     -0.429     -3.220     1.00     1.00     1.00     0.00    -51.99
   55     0.0100    1.00000     -0.229     -3.066     1.00     1.00     1.00     0.00    -49.99
   54     0.0100    1.00000     -1.025     -1.853     1.00     1.00     1.00     0.00    -47.99
   53     0.0100    1.00000     -1.943     -2.477     1.00     1.00     1.00     0.00    -45.99
   52     0.0100    1.00000     -2.113     -1.636     1.00     1.00     1.00     0.00    -43.99
   51     0.0100    1.00000     -2.295     -2.539     1.00     1.00     1.00     0.00    -41.99
   50     0.0100    1.00000     -2.584     -2.485     1.00     1.00     1.00     0.00    -39.99
   49     0.0100    1.00000     -2.688     -1.632     1.00     1.00     1.00     0.00    -37.99
   48     0.0100    1.00000     -3.611     -1.889     1.00     1.00     1.00     0.00    -35.99
   47     0.0100    1.00000     -4.408     -1.866     1.00     1.00     1.00     0.00    -33.99
   46     0.0100    1.00000     -4.949     -1.885     1.00     1.00     1.00     0.00    -31.99
   45     0.0100    1.00000     -4.819     -2.581     1.00     1.00     1.00     0.00    -29.99
   44     0.0100    1.00000     -5.121     -2.571     1.00     1.00     1.00     0.00    -27.99
   43     0.0100    1.00000     -4.854     -1.973     1.00     1.00     1.00     0.00    -25.99
   42     0.0100    1.00000     -5.043     -2.475     1.00     1.00     1.00     0.00    -23.99
   41     0.0100    1.00000     -5.376     -1.036     1.00     1.00     1.00     0.00    -21.99
   40     0.0100    1.00000     -5.867     -0.856     1.00     1.00     1.00     0.00    -19.99
   39     0.0100    1.00000     -4.235     -1.230     1.00     1.00     1.00     0.00    -17.99
   38     0.0100    1.00000     -5.893     -0.267     1.00     1.00     1.00     0.00    -15.99
   37     0.0100    1.00000     -6.046     -1.240     1.00     1.00     1.00     0.00    -13.99
   36     0.0100    1.00000     -5.959     -0.469     1.00     1.00     1.00     0.00    -11.99
   35     0.0100    1.00000     -3.117      0.435     1.00     1.00     1.00     0.00     -9.99
   34     0.0100    1.00000     -2.975     -0.584     1.00     1.00     1.00     0.00     -7.99
   33     0.0100    1.00000     -3.510     -1.312     1.00     1.00     1.00     0.00     -5.99
   32     0.0100    1.00000     -3.117     -0.957     1.00     1.00     1.00     0.00     -3.99
   31     0.0100    1.00000     -2.248     -1.240     1.00     1.00     1.00     0.00     -1.99
   30     0.0100    1.00000      0.000      0.000     1.00     1.00     1.00     0.00     -0.00
   29     0.0100    1.00000      0.837      0.960     1.00     1.00     1.00     0.00      2.00
   28     0.0100    1.00000      1.848     -0.726     1.00     1.00     1.00     0.00      4.00
   27     0.0100    1.00000      1.832     -0.287     1.00     1.00     1.00     0.00      6.00
   26     0.0100    1.00000      3.454     -0.240     1.00     1.00     1.00     0.00      8.00
   25     0.0100    1.00000      4.330     -0.803     1.00     1.00     1.00     0.00     10.00
   24     0.0100    1.00000      4.548     -1.671     1.00     1.00     1.00     0.00     12.00
   23     0.0100    1.00000      5.567     -1.852     1.00     1.00     1.00     0.00     14.00
   22     0.0100    1.00000      6.215     -1.875     1.00     1.00     1.00     0.00     16.00
   21     0.0100    1.00000      7.493     -1.648     1.00     1.00     1.00     0.00     18.00
   20     0.0100    1.00000      8.127     -1.977     1.00     1.00     1.00     0.00     20.00
   19     0.0100    1.00000      8.822     -2.396     1.00     1.00     1.00     0.00     22.00
   18     0.0100    1.00000      9.176     -2.547     1.00     1.00     1.00     0.00     24.00
   17     0.0100    1.00000      7.880     -2.429     1.00     1.00     1.00     0.00     26.00
   16     0.0100    1.00000      9.120     -3.265     1.00     1.00     1.00     0.00     28.00
   15     0.0100    1.00000      9.068     -2.982     1.00     1.00     1.00     0.00     29.99
   14     0.0100    1.00000      8.887     -2.417     1.00     1.00     1.00     0.00     32.00
   13     0.0100    1.00000      7.628     -4.215     1.00     1.00     1.00     0.00     33.99
   12     0.0100    1.00000      7.316     -4.323     1.00     1.00     1.00     0.00     35.99
   11     0.0100    1.00000      7.376     -3.518     1.00     1.00     1.00     0.00     37.99
   10     0.0100    1.00000      7.031     -5.410     1.00     1.00     1.00     0.00     39.99
    9     0.0100    1.00000      7.005     -4.298     1.00     1.00     1.00     0.00     41.99
    8     0.0100    1.00000      5.974     -5.551     1.00     1.00     1.00     0.00     43.99
    7     0.0100    1.00000      5.272     -5.428     1.00     1.00     1.00     0.00     45.99
    6     0.0100    1.00000      4.993     -5.723     1.00     1.00     1.00     0.00     47.99
    5     0.0100    1.00000      4.076     -7.019     1.00     1.00     1.00     0.00     50.00
    4     0.0100    1.00000      5.128     -6.108     1.00     1.00     1.00     0.00     52.00
    3     0.0100    1.00000      3.881     -7.293     1.00     1.00     1.00     0.00     53.99
    2     0.0100    1.00000      3.411     -8.313     1.00     1.00     1.00     0.00     55.99
    1     0.0100    1.00000      3.164     -7.678     1.00     1.00     1.00     0.00     58.00
    0     0.0100    1.00000      3.572     -8.920     1.00     1.00     1.00     0.00     59.99
