# AreTomo Alignment / Priims bprmMn 
# RawSize = 512 512 61
# NumPatches = 0
# SEC     ROT         GMAG       TX          TY      SMEAN     SFIT    SCALE     BASE     TILT
   60     0.0100    1.00000      4.858     -2.026     1.00     1.00     1.00     0.00    -59.99
   59     0.0100    1.00000      4.067      0.120     1.00     1.00     1.00     0.00    -57.99
   58     0.0100    1.00000      4.880     -1.485     1.00     1.00     1.00     0.00    -55.99
   57     0.0100    1.00000      5.188     -0.014     1.00     1.00     1.00     0.00    -53.99
   56     0.0100    1.00000      4.931     -1.650     1.00     1.00     1.00     0.00    -51.99
   55     0.0100    1.00000      4.411      0.374     1.00     1.00     1.00     0.00    -49.99
   54     0.0100    1.00000      4.570     -0.221     1.00     1.00     1.00     0.00    -47.99
   53     0.0100    1.00000      4.983     -1.611     1.00     1.00     1.00     0.00    -45.99
   52     0.0100    1.00000      4.394     -0.708     1.00     1.00     1.00     0.00    -43.99
   51     0.0100    1.00000      4.982     -1.695     1.00     1.00     1.00     0.00    -41.99
   50     0.0100    1.00000      4.294     -1.010     1.00     1.00     1.00     0.00    -39.99
   49     0.0100    1.00000      4.801     -0.972     1.00     1.00     1.00     0.00    -37.99
   48     0.0100    1.00000      3.036     -1.097     1.00     1.00     1.00     0.00    -35.99
   47     0.0100    1.00000      3.227     -0.514     1.00     1.00     1.00     0.00    -33.99
   46     0.0100    1.00000      3.552     -0.566     1.00     1.00     1.00     0.00    -31.99
   45     0.0100    1.00000      3.852     -1.288     1.00     1.00     1.00     0.00    -29.99
   44     0.0100    1.00000      3.507     -1.468     1.00     1.00     1.00     0.00    -27.99
   43     0.0100    1.00000      3.851     -0.528     1.00     1.00     1.00     0.00    -25.99
   42     0.0100    1.00000      5.074     -0.165     1.00     1.00     1.00     0.00    -23.99
   41     0.0100    1.00000      2.247     -0.627     1.00     1.00     1.00     0.00    -21.99
   40     0.0100    1.00000      1.427     -0.902     1.00     1.00     1.00     0.00    -19.99
   39     0.0100    1.00000      2.247     -1.044     1.00     1.00     1.00     0.00    -17.99
   38     0.0100    1.00000      1.010     -2.425     1.00     1.00     1.00     0.00    -15.99
   37     0.0100    1.00000      1.371     -1.244     1.00     1.00     1.00     0.00    -13.99
   36     0.0100    1.00000      2.990     -0.456     1.00     1.00     1.00     0.00    -11.99
   35     0.0100    1.00000     -0.020     -1.015     1.00     1.00     1.00     0.00     -9.99
   34     0.0100    1.00000     -0.713     -0.355     1.00     1.00     1.00     0.00     -7.99
   33     0.0100    1.00000     -0.858     -0.814     1.00     1.00     1.00     0.00     -5.99
   32     0.0100    1.00000      0.986     -2.639     1.00     1.00     1.00     0.00     -3.99
   31     0.0100    1.00000      0.454     -0.047     1.00     1.00     1.00     0.00     -1.99
   30     0.0100    1.00000      0.000      0.000     1.00     1.00     1.00     0.00     -0.00
   29     0.0100    1.00000     -0.333     -1.027     1.00     1.00     1.00     0.00      2.00
   28     0.0100    1.00000     -1.284     -1.042     1.00     1.00     1.00     0.00      4.00
   27     0.0100    1.00000     -1.268     -1.240     1.00     1.00     1.00     0.00      6.00
   26     0.0100    1.00000     -0.537      0.492     1.00     1.00     1.00     0.00      8.00
   25     0.0100    1.00000      0.637     -1.192     1.00     1.00     1.00     0.00     10.00
   24     0.0100    1.00000     -0.663     -1.200     1.00     1.00     1.00     0.00     12.00
   23     0.0100    1.00000      0.105     -0.218     1.00     1.00     1.00     0.00     14.00
   22     0.0100    1.00000     -0.165     -0.889     1.00     1.00     1.00     0.00     16.00
   21     0.0100    1.00000     -0.053     -1.421     1.00     1.00     1.00     0.00     18.00
   20     0.0100    1.00000      0.355     -1.408     1.00     1.00     1.00     0.00     20.00
   19     0.0100    1.00000     -0.532     -1.468     1.00     1.00     1.00     0.00     22.00
   18     0.0100    1.00000      0.576     -1.273     1.00     1.00     1.00     0.00     24.00
   17     0.0100    1.00000      0.953     -0.718     1.00     1.00     1.00     0.00     26.00
   16     0.0100    1.00000     -0.319     -1.226     1.00     1.00     1.00     0.00     28.00
   15     0.0100    1.00000      0.902     -1.592     1.00     1.00     1.00     0.00     29.99
   14     0.0100    1.00000      1.400     -0.973     1.00     1.00     1.00     0.00     32.00
   13     0.0100    1.00000      1.622     -1.607     1.00     1.00     1.00     0.00     33.99
   12     0.0100    1.00000      1.398     -1.572     1.00     1.00     1.00     0.00     35.99
   11     0.0100    1.00000      3.210     -2.227     1.00     1.00     1.00     0.00     37.99
   10     0.0100    1.00000      2.413     -1.261     1.00     1.00     1.00     0.00     39.99
    9     0.0100    1.00000      3.537     -2.385     1.00     1.00     1.00     0.00     41.99
    8     0.0100    1.00000      2.785     -2.359     1.00     1.00     1.00     0.00     43.99
    7     0.0100    1.00000      3.298     -2.040     1.00     1.00     1.00     0.00     45.99
    6     0.0100    1.00000      3.776     -2.439     1.00     1.00     1.00     0.00     47.99
    5     0.0100    1.00000      3.535     -2.585     1.00     1.00     1.00     0.00     50.00
    4     0.0100    1.00000      4.379     -2.522     1.00     1.00     1.00     0.00     52.00
    3     0.0100    1.00000      5.102     -4.099     1.00     1.00     1.00     0.00     53.99
    2     0.0100    1.00000      4.758     -3.933     1.00     1.00     1.00     0.00     55.99
    1     0.0100    1.00000      4.686     -4.350     1.00     1.00     1.00     0.00     58.00
    0     0.0100    1.00000      5.569     -3.487     1.00     1.00     1.00     0.00     59.99
