# AreTomo Alignment / Priims bprmMn 
# RawSize = 512 512 61
# NumPatches = 0
# SEC     ROT         GMAG       TX          TY      SMEAN     SFIT    SCALE     BASE     TILT
   60     0.0100    1.00000     -2.324      5.930     1.00     1.00     1.00     0.00    -59.99
   59     0.0100    1.00000     -2.491      3.939     1.00     1.00     1.00     0.00    -57.99
   58     0.0100    1.00000     -3.250      4.534     1.00     1.00     1.00     0.00    -55.99
   57     0.0100    1.00000     -2.860      4.878     1.00     1.00     1.00     0.00    -53.99
   56     0.0100    1.00000     -3.503      2.998     1.00     1.00     1.00     0.00    -51.99
   55     0.0100    1.00000     -2.382      2.171     1.00     1.00     1.00     0.00    -49.99
   54     0.0100    1.00000     -1.969      3.816     1.00     1.00     1.00     0.00    -47.99
   53     0.0100    1.00000     -3.899      3.235     1.00     1.00     1.00     0.00    -45.99
   52     0.0100    1.00000     -2.790      2.955     1.00     1.00     1.00     0.00    -43.99
   51     0.0100    1.00000     -3.384      1.561     1.00     1.00     1.00     0.00    -41.99
   50     0.0100    1.00000     -3.344      2.176     1.00     1.00     1.00     0.00    -39.99
   49     0.0100    1.00000     -4.937      2.153     1.00     1.00     1.00     0.00    -37.99
   48     0.0100    1.00000     -1.610     -0.767     1.00     1.00     1.00     0.00    -35.99
   47     0.0100    1.00000     -3.411      0.723     1.00     1.00     1.00     0.00    -33.99
   46     0.0100    1.00000     -2.822      1.821     1.00     1.00     1.00     0.00    -31.99
   45     0.0100    1.00000     -3.785     -0.183     1.00     1.00     1.00     0.00    -29.99
   44     0.0100    1.00000     -2.671      1.377     1.00     1.00     1.00     0.00    -27.99
   43     0.0100    1.00000     -2.501     -0.534     1.00     1.00     1.00     0.00    -25.99
   42     0.0100    1.00000     -1.154     -1.893     1.00     1.00     1.00     0.00    -23.99
   41     0.0100    1.00000     -0.609     -0.099     1.00     1.00     1.00     0.00    -21.99
   40     0.0100    1.00000     -1.607     -1.983     1.00     1.00     1.00     0.00    -19.99
   39     0.0100    1.00000     -0.278     -3.050     1.00     1.00     1.00     0.00    -17.99
   38     0.0100    1.00000      0.068     -2.129     1.00     1.00     1.00     0.00    -15.99
   37     0.0100    1.00000      0.680     -3.088     1.00     1.00     1.00     0.00    -13.99
   36     0.0100    1.00000      0.580     -1.163     1.00     1.00     1.00     0.00    -11.99
   35     0.0100    1.00000      1.547     -0.395     1.00     1.00     1.00     0.00     -9.99
   34     0.0100    1.00000      1.724     -1.610     1.00     1.00     1.00     0.00     -7.99
   33     0.0100    1.00000      0.663     -0.213     1.00     1.00     1.00     0.00     -5.99
   32     0.0100    1.00000      0.441     -0.895     1.00     1.00     1.00     0.00     -3.99
   31     0.0100    1.00000      1.872     -0.312     1.00     1.00     1.00     0.00     -1.99
   30     0.0100    1.00000      0.000      0.000     1.00     1.00     1.00     0.00     -0.00
   29     0.0100    1.00000      1.984     -1.786     1.00     1.00     1.00     0.00      2.00
   28     0.0100    1.00000      3.451     -1.365     1.00     1.00     1.00     0.00      4.00
   27     0.0100    1.00000      2.809      1.494     1.00     1.00     1.00     0.00      6.00
   26     0.0100    1.00000      1.700     -0.255     1.00     1.00     1.00     0.00      8.00
   25     0.0100    1.00000      1.564     -1.116     1.00     1.00     1.00     0.00     10.00
   24     0.0100    1.00000      0.322      0.714     1.00     1.00     1.00     0.00     12.00
   23     0.0100    1.00000     -1.533     -2.261     1.00     1.00     1.00     0.00     14.00
   22     0.0100    1.00000      0.208     -2.254     1.00     1.00     1.00     0.00     16.00
   21     0.0100    1.00000     -0.085     -1.600     1.00     1.00     1.00     0.00     18.00
   20     0.0100    1.00000     -0.529     -1.934     1.00     1.00     1.00     0.00     20.00
   19     0.0100    1.00000      0.003     -0.574     1.00     1.00     1.00     0.00     22.00
   18     0.0100    1.00000     -1.056     -0.201     1.00     1.00     1.00     0.00     24.00
   17     0.0100    1.00000      0.223     -0.711     1.00     1.00     1.00     0.00     26.00
   16     0.0100    1.00000     -1.916      0.590     1.00     1.00     1.00     0.00     28.00
   15     0.0100    1.00000     -1.539      2.200     1.00     1.00     1.00     0.00     29.99
   14     0.0100    1.00000     -1.694     -0.231     1.00     1.00     1.00     0.00     32.00
   13     0.0100    1.00000     -1.514     -0.104     1.00     1.00     1.00     0.00     33.99
   12     0.0100    1.00000     -3.847      2.118     1.00     1.00     1.00     0.00     35.99
   11     0.0100    1.00000     -1.632      2.697     1.00     1.00     1.00     0.00     37.99
   10     0.0100    1.00000     -1.735      2.096     1.00     1.00     1.00     0.00     39.99
    9     0.0100    1.00000     -0.401      1.256     1.00     1.00     1.00     0.00     41.99
    8     0.0100    1.00000     -0.541      2.889     1.00     1.00     1.00     0.00     43.99
    7     0.0100    1.00000     -0.572      2.149     1.00     1.00     1.00     0.00     45.99
    6     0.0100    1.00000     -1.483      2.547     1.00     1.00     1.00     0.00     47.99
    5     0.0100    1.00000      0.057      3.609     1.00     1.00     1.00     0.00     50.00
    4     0.0100    1.00000      0.139      4.684     1.00     1.00     1.00     0.00     52.00
    3     0.0100    1.00000     -0.508      4.814     1.00     1.00     1.00     0.00     53.99
    2     0.0100    1.00000      0.547      6.836     1.00     1.00     1.00     0.00     55.99
    1     0.0100    1.00000     -0.234      8.163     1.00     1.00     1.00     0.00     58.00
    0     0.0100    1.00000      0.588      7.801     1.00     1.00     1.00     0.00     59.99
