# AreTomo Alignment / Priims bprmMn 
# RawSize = 512 512 61
# NumPatches = 0
# SEC     ROT         GMAG       TX          TY      SMEAN     SFIT    SCALE     BASE     TILT
   60     0.0100    1.00000     -1.164     -1.612     1.00     1.00     1.00     0.00    -59.99
   59     0.0100    1.00000     -1.534     -1.764     1.00     1.00     1.00     0.00    -57.99
   58     0.0100    1.00000     -1.317      0.453     1.00     1.00     1.00     0.00    -55.99
   57     0.0100    1.00000     -2.541     -1.197     1.00     1.00     1.00     0.00    -53.99
   56     0.0100    1.00000     -2.325      0.882     1.00     1.00     1.00     0.00    -51.99
   55     0.0100    1.00000     -1.859     -0.397     1.00     1.00     1.00     0.00    -49.99
   54     0.0100    1.00000     -2.931     -0.178     1.00     1.00     1.00     0.00    -47.99
   53     0.0100    1.00000     -2.780     -0.175     1.00     1.00     1.00     0.00    -45.99
   52     0.0100    1.00000     -3.215      1.054     1.00     1.00     1.00     0.00    -43.99
   51     0.0100    1.00000     -3.711     -0.373     1.00     1.00     1.00     0.00    -41.99
   50     0.0100    1.00000     -3.559      0.626     1.00     1.00     1.00     0.00    -39.99
   49     0.0100    1.00000     -3.767      0.769     1.00     1.00     1.00     0.00    -37.99
   48     0.0100    1.00000     -3.779      1.494     1.00     1.00     1.00     0.00    -35.99
   47     0.0100    1.00000     -4.784      1.045     1.00     1.00     1.00     0.00    -33.99
   46     0.0100    1.00000     -4.906      0.105     1.00     1.00     1.00     0.00    -31.99
   45     0.0100    1.00000     -5.040      0.581     1.00     1.00     1.00     0.00    -29.99
   44     0.0100    1.00000     -3.312      0.316     1.00     1.00     1.00     0.00    -27.99
   43     0.0100    1.00000     -2.923      0.782     1.00     1.00     1.00     0.00    -25.99
   42     0.0100    1.00000     -3.264      0.214     1.00     1.00     1.00     0.00    -23.99
   41     0.0100    1.00000     -3.889      1.368     1.00     1.00     1.00     0.00    -21.99
   40     0.0100    1.00000     -4.849      0.334     1.00     1.00     1.00     0.00    -19.99
   39     0.0100    1.00000     -3.917      0.630     1.00     1.00     1.00     0.00    -17.99
   38     0.0100    1.00000     -3.528      1.950     1.00     1.00     1.00     0.00    -15.99
   37     0.0100    1.00000     -3.471      1.049     1.00     1.00     1.00     0.00    -13.99
   36     0.0100    1.00000     -2.997      1.006     1.00     1.00     1.00     0.00    -11.99
   35     0.0100    1.00000     -2.890      0.442     1.00     1.00     1.00     0.00     -9.99
   34     0.0100    1.00000     -1.689     -0.734     1.00     1.00     1.00     0.00     -7.99
   33     0.0100    1.00000     -2.690      0.896     1.00     1.00     1.00     0.00     -5.99
   32     0.0100    1.00000     -2.679      1.074     1.00     1.00     1.00     0.00     -3.99
   31     0.0100    1.00000     -2.232      1.423     1.00     1.00     1.00     0.00     -1.99
   30     0.0100    1.00000      0.000      0.000     1.00     1.00     1.00     0.00     -0.00
   29     0.0100    1.00000     -0.063     -0.480     1.00     1.00     1.00     0.00      2.00
   28     0.0100    1.00000      0.145     -0.258     1.00     1.00     1.00     0.00      4.00
   27     0.0100    1.00000     -0.085      0.922     1.00     1.00     1.00     0.00      6.00
   26     0.0100    1.00000     -0.237      0.664     1.00     1.00     1.00     0.00      8.00
   25     0.0100    1.00000      0.680      0.864     1.00     1.00     1.00     0.00     10.00
   24     0.0100    1.00000      0.782      0.783     1.00     1.00     1.00     0.00     12.00
   23     0.0100    1.00000      0.822     -0.267     1.00     1.00     1.00     0.00     14.00
   22     0.0100    1.00000      1.137      1.272     1.00     1.00     1.00     0.00     16.00
   21     0.0100    1.00000      1.166      0.262     1.00     1.00     1.00     0.00     18.00
   20     0.0100    1.00000      1.062      0.478     1.00     1.00     1.00     0.00     20.00
   19     0.0100    1.00000      1.995      0.889     1.00     1.00     1.00     0.00     22.00
   18     0.0100    1.00000      1.962      1.116     1.00     1.00     1.00     0.00     24.00
   17     0.0100    1.00000      3.043     -0.441     1.00     1.00     1.00     0.00     26.00
   16     0.0100    1.00000      2.754      0.285     1.00     1.00     1.00     0.00     28.00
   15     0.0100    1.00000      1.254      1.454     1.00     1.00     1.00     0.00     29.99
   14     0.0100    1.00000      2.778      0.972     1.00     1.00     1.00     0.00     32.00
   13     0.0100    1.00000      0.733      0.408     1.00     1.00     1.00     0.00     33.99
   12     0.0100    1.00000      1.466      0.734     1.00     1.00     1.00     0.00     35.99
   11     0.0100    1.00000      1.319     -0.120     1.00     1.00     1.00     0.00     37.99
   10     0.0100    1.00000      0.667     -0.103     1.00     1.00     1.00     0.00     39.99
    9     0.0100    1.00000     -0.027      0.090     1.00     1.00     1.00     0.00     41.99
    8     0.0100    1.00000      0.074     -0.098     1.00     1.00     1.00     0.00     43.99
    7     0.0100    1.00000      0.247      0.768     1.00     1.00     1.00     0.00     45.99
    6     0.0100    1.00000      1.052      0.171     1.00     1.00     1.00     0.00     47.99
    5     0.0100    1.00000      0.426      0.702     1.00     1.00     1.00     0.00     50.00
    4     0.0100    1.00000      0.725     -0.460     1.00     1.00     1.00     0.00     52.00
    3     0.0100    1.00000     -0.174      0.064     1.00     1.00     1.00     0.00     53.99
    2     0.0100    1.00000     -0.847      0.460     1.00     1.00     1.00     0.00     55.99
    1     0.0100    1.00000     -0.189     -0.739     1.00     1.00     1.00     0.00     58.00
    0     0.0100    1.00000     -0.886      0.431     1.00     1.00     1.00     0.00     59.99
