# AreTomo Alignment / Priims bprmMn 
# RawSize = 512 512 61
# NumPatches = 0
# SEC     ROT         GMAG       TX          TY      SMEAN     SFIT    SCALE     BASE     TILT
   60     0.0100    1.00000     -6.472     -0.652     1.00     1.00     1.00     0.00    -59.99
   59     0.0100    1.00000     -7.480     -0.673     1.00     1.00     1.00     0.00    -57.99
   58     0.0100    1.00000     -8.206      0.328     1.00     1.00     1.00     0.00    -55.99
   57     0.0100    1.00000     -8.855      0.826     1.00     1.00     1.00     0.00    -53.99
   56     0.0100    1.00000     -9.746      0.022     1.00     1.00     1.00     0.00    -51.99
   55     0.0100    1.00000     -9.947      0.959     1.00     1.00     1.00     0.00    -49.99
   54     0.0100    1.00000    -10.780      1.338     1.00     1.00     1.00     0.00    -47.99
   53     0.0100    1.00000    -11.514      0.860     1.00     1.00     1.00     0.00    -45.99
   52     0.0100    1.00000    -11.160      1.084     1.00     1.00     1.00     0.00    -43.99
   51     0.0100    1.00000    -11.971      1.445     1.00     1.00     1.00     0.00    -41.99
   50     0.0100    1.00000    -12.294      1.039     1.00     1.00     1.00     0.00    -39.99
   49     0.0100    1.00000    -12.180      0.966     1.00     1.00     1.00     0.00    -37.99
   48     0.0100    1.00000    -12.493      1.765     1.00     1.00     1.00     0.00    -35.99
   47     0.0100    1.00000    -12.547      1.524     1.00     1.00     1.00     0.00    -33.99
   46     0.0100    1.00000    -11.916      1.518     1.00     1.00     1.00     0.00    -31.99
   45     0.0100    1.00000    -12.248      1.933     1.00     1.00     1.00     0.00    -29.99
   44     0.0100    1.00000    -11.023      1.179     1.00     1.00     1.00     0.00    -27.99
   43     0.0100    1.00000    -10.190      1.620     1.00     1.00     1.00     0.00    -25.99
   42     0.0100    1.00000    -10.362      1.103     1.00     1.00     1.00     0.00    -23.99
   41     0.0100    1.00000    -10.003      1.545     1.00     1.00     1.00     0.00    -21.99
   40     0.0100    1.00000     -9.047      1.876     1.00     1.00     1.00     0.00    -19.99
   39     0.0100    1.00000     -8.519      1.849     1.00     1.00     1.00     0.00    -17.99
   38     0.0100    1.00000     -8.093      0.857     1.00     1.00     1.00     0.00    -15.99
   37     0.0100    1.00000     -7.842      1.202     1.00     1.00     1.00     0.00    -13.99
   36     0.0100    1.00000     -7.195      1.313     1.00     1.00     1.00     0.00    -11.99
   35     0.0100    1.00000     -5.365      0.909     1.00     1.00     1.00     0.00     -9.99
   34     0.0100    1.00000     -4.440      1.148     1.00     1.00     1.00     0.00     -7.99
   33     0.0100    1.00000     -3.581      0.637     1.00     1.00     1.00     0.00     -5.99
   32     0.0100    1.00000     -2.683      0.826     1.00     1.00     1.00     0.00     -3.99
   31     0.0100    1.00000     -1.059     -0.171     1.00     1.00     1.00     0.00     -1.99
   30     0.0100    1.00000      0.000      0.000     1.00     1.00     1.00     0.00     -0.00
   29     0.0100    1.00000      1.728     -1.271     1.00     1.00     1.00     0.00      2.00
   28     0.0100    1.00000      2.022     -0.877     1.00     1.00     1.00     0.00      4.00
   27     0.0100    1.00000      3.082     -2.009     1.00     1.00     1.00     0.00      6.00
   26     0.0100    1.00000      3.718     -2.065     1.00     1.00     1.00     0.00      8.00
   25     0.0100    1.00000      4.997     -1.796     1.00     1.00     1.00     0.00     10.00
   24     0.0100    1.00000      5.896     -2.756     1.00     1.00     1.00     0.00     12.00
   23     0.0100    1.00000      5.874     -2.829     1.00     1.00     1.00     0.00     14.00
   22     0.0100    1.00000      6.380     -3.614     1.00     1.00     1.00     0.00     16.00
   21     0.0100    1.00000      6.145     -3.201     1.00     1.00     1.00     0.00     18.00
   20     0.0100    1.00000      6.285     -4.196     1.00     1.00     1.00     0.00     20.00
   19     0.0100    1.00000      6.552     -4.658     1.00     1.00     1.00     0.00     22.00
   18     0.0100    1.00000      6.576     -5.697     1.00     1.00     1.00     0.00     24.00
   17     0.0100    1.00000      6.364     -4.583     1.00     1.00     1.00     0.00     26.00
   16     0.0100    1.00000      6.588     -5.466     1.00     1.00     1.00     0.00     28.00
   15     0.0100    1.00000      6.921     -6.874     1.00     1.00     1.00     0.00     29.99
   14     0.0100    1.00000      5.891     -6.566     1.00     1.00     1.00     0.00     32.00
   13     0.0100    1.00000      4.969     -7.358     1.00     1.00     1.00     0.00     33.99
   12     0.0100    1.00000      4.751     -7.302     1.00     1.00     1.00     0.00     35.99
   11     0.0100    1.00000      4.265     -8.462     1.00     1.00     1.00     0.00     37.99
   10     0.0100    1.00000      4.393     -8.691     1.00     1.00     1.00     0.00     39.99
    9     0.0100    1.00000      4.562     -8.563     1.00     1.00     1.00     0.00     41.99
    8     0.0100    1.00000      2.741     -8.984     1.00     1.00     1.00     0.00     43.99
    7     0.0100    1.00000      2.278     -9.742     1.00     1.00     1.00     0.00     45.99
    6     0.0100    1.00000      1.986     -9.981     1.00     1.00     1.00     0.00     47.99
    5     0.0100    1.00000      1.345     -9.925     1.00     1.00     1.00     0.00     50.00
    4     0.0100    1.00000      1.456    -10.341     1.00     1.00     1.00     0.00     52.00
    3     0.0100    1.00000      0.412    -10.097     1.00     1.00     1.00     0.00     53.99
    2     0.0100    1.00000     -0.106    -11.375     1.00     1.00     1.00     0.00     55.99
    1     0.0100    1.00000     -1.448    -11.730     1.00     1.00     1.00     0.00     58.00
    0     0.0100    1.00000     -2.717    -12.240     1.00     1.00     1.00     0.00     59.99
