# AreTomo Alignment / Priims bprmMn 
# RawSize = 512 512 61
# NumPatches = 0
# SEC     ROT         GMAG       TX          TY      SMEAN     SFIT    SCALE     BASE     TILT
   60     0.0100    1.00000     -4.032     -1.632     1.00     1.00     1.00     0.00    -59.99
   59     0.0100    1.00000     -6.326     -1.997     1.00     1.00     1.00     0.00    -57.99
   58     0.0100    1.00000     -5.529      0.162     1.00     1.00     1.00     0.00    -55.99
   57     0.0100    1.00000     -8.595     -0.761     1.00     1.00     1.00     0.00    -53.99
   56     0.0100    1.00000     -9.320     -0.195     1.00     1.00     1.00     0.00    -51.99
   55     0.0100    1.00000     -9.941     -1.262     1.00     1.00     1.00     0.00    -49.99
   54     0.0100    1.00000     -9.607     -3.667     1.00     1.00     1.00     0.00    -47.99
   53     0.0100    1.00000    -11.334     -2.026     1.00     1.00     1.00     0.00    -45.99
   52     0.0100    1.00000    -11.476     -1.055     1.00     1.00     1.00     0.00    -43.99
   51     0.0100    1.00000    -12.353     -2.943     1.00     1.00     1.00     0.00    -41.99
   50     0.0100    1.00000    -12.267     -0.822     1.00     1.00     1.00     0.00    -39.99
   49     0.0100    1.00000    -12.368     -0.831     1.00     1.00     1.00     0.00    -37.99
   48     0.0100    1.00000    -11.829     -1.887     1.00     1.00     1.00     0.00    -35.99
   47     0.0100    1.00000    -11.690     -3.637     1.00     1.00     1.00     0.00    -33.99
   46     0.0100    1.00000    -13.424     -2.303     1.00     1.00     1.00     0.00    -31.99
   45     0.0100    1.00000    -12.363     -0.773     1.00     1.00     1.00     0.00    -29.99
   44     0.0100    1.00000    -10.997     -2.258     1.00     1.00     1.00     0.00    -27.99
   43     0.0100    1.00000    -10.171     -0.653     1.00     1.00     1.00     0.00    -25.99
   42     0.0100    1.00000    -12.162     -3.538     1.00     1.00     1.00     0.00    -23.99
   41     0.0100    1.00000    -11.279     -2.984     1.00     1.00     1.00     0.00    -21.99
   40     0.0100    1.00000    -10.060     -0.956     1.00     1.00     1.00     0.00    -19.99
   39     0.0100    1.00000     -8.480     -2.238     1.00     1.00     1.00     0.00    -17.99
   38     0.0100    1.00000     -9.515     -0.722     1.00     1.00     1.00     0.00    -15.99
   37     0.0100    1.00000     -6.756     -0.695     1.00     1.00     1.00     0.00    -13.99
   36     0.0100    1.00000     -7.704     -2.179     1.00     1.00     1.00     0.00    -11.99
   35     0.0100    1.00000     -7.633     -2.722     1.00     1.00     1.00     0.00     -9.99
   34     0.0100    1.00000     -5.275     -0.593     1.00     1.00     1.00     0.00     -7.99
   33     0.0100    1.00000     -5.623     -2.359     1.00     1.00     1.00     0.00     -5.99
   32     0.0100    1.00000     -4.327     -2.704     1.00     1.00     1.00     0.00     -3.99
   31     0.0100    1.00000     -1.330     -0.719     1.00     1.00     1.00     0.00     -1.99
   30     0.0100    1.00000      0.000      0.000     1.00     1.00     1.00     0.00     -0.00
   29     0.0100    1.00000      1.949     -1.768     1.00     1.00     1.00     0.00      2.00
   28     0.0100    1.00000     -0.918     -1.385     1.00     1.00     1.00     0.00      4.00
   27     0.0100    1.00000      2.036     -1.263     1.00     1.00     1.00     0.00      6.00
   26     0.0100    1.00000      4.190     -1.239     1.00     1.00     1.00     0.00      8.00
   25     0.0100    1.00000      3.910     -0.783     1.00     1.00     1.00     0.00     10.00
   24     0.0100    1.00000      3.223     -1.436     1.00     1.00     1.00     0.00     12.00
   23     0.0100    1.00000      4.564     -1.959     1.00     1.00     1.00     0.00     14.00
   22     0.0100    1.00000      5.443     -1.592     1.00     1.00     1.00     0.00     16.00
   21     0.0100    1.00000      4.178      0.556     1.00     1.00     1.00     0.00     18.00
   20     0.0100    1.00000      4.851     -2.391     1.00     1.00     1.00     0.00     20.00
   19     0.0100    1.00000      4.702     -1.806     1.00     1.00     1.00     0.00     22.00
   18     0.0100    1.00000      6.618     -1.812     1.00     1.00     1.00     0.00     24.00
   17     0.0100    1.00000      5.128      0.028     1.00     1.00     1.00     0.00     26.00
   16     0.0100    1.00000      5.532     -2.545     1.00     1.00     1.00     0.00     28.00
   15     0.0100    1.00000      7.135     -1.222     1.00     1.00     1.00     0.00     29.99
   14     0.0100    1.00000      3.082     -0.934     1.00     1.00     1.00     0.00     32.00
   13     0.0100    1.00000      4.448     -1.862     1.00     1.00     1.00     0.00     33.99
   12     0.0100    1.00000      3.148     -0.842     1.00     1.00     1.00     0.00     35.99
   11     0.0100    1.00000      3.443     -1.098     1.00     1.00     1.00     0.00     37.99
   10     0.0100    1.00000      1.624     -1.560     1.00     1.00     1.00     0.00     39.99
    9     0.0100    1.00000      3.641     -0.769     1.00     1.00     1.00     0.00     41.99
    8     0.0100    1.00000      1.248     -3.771     1.00     1.00     1.00     0.00     43.99
    7     0.0100    1.00000      2.278     -2.831     1.00     1.00     1.00     0.00     45.99
    6     0.0100    1.00000      2.394     -1.024     1.00     1.00     1.00     0.00     47.99
    5     0.0100    1.00000     -0.575     -1.827     1.00     1.00     1.00     0.00     50.00
    4     0.0100    1.00000     -1.266      0.585     1.00     1.00     1.00     0.00     52.00
    3     0.0100    1.00000     -1.522     -0.896     1.00     1.00     1.00     0.00     53.99
    2     0.0100    1.00000     -1.970     -2.205     1.00     1.00     1.00     0.00     55.99
    1     0.0100    1.00000     -2.353     -2.345     1.00     1.00     1.00     0.00     58.00
    0     0.0100    1.00000     -3.698     -0.904     1.00     1.00     1.00     0.00     59.99
