# AreTomo Alignment / Priims bprmMn 
# RawSize = 512 512 61
# NumPatches = 0
# SEC     ROT         GMAG       TX          TY      SMEAN     SFIT    SCALE     BASE     TILT
   60     0.0100    1.00000      1.576     -5.898     1.00     1.00     1.00     0.00    -59.99
   59     0.0100    1.00000      1.590     -5.192     1.00     1.00     1.00     0.00    -57.99
   58     0.0100    1.00000      0.987     -4.810     1.00     1.00     1.00     0.00    -55.99
   57     0.0100    1.00000      0.794     -4.428     1.00     1.00     1.00     0.00    -53.99
   56     0.0100    1.00000      0.061     -4.104     1.00     1.00     1.00     0.00    -51.99
   55     0.0100    1.00000      0.346     -3.210     1.00     1.00     1.00     0.00    -49.99
   54     0.0100    1.00000      0.328     -3.498     1.00     1.00     1.00     0.00    -47.99
   53     0.0100    1.00000      0.080     -3.357     1.00     1.00     1.00     0.00    -45.99
   52     0.0100    1.00000     -0.288     -3.385     1.00     1.00     1.00     0.00    -43.99
   51     0.0100    1.00000      0.055     -2.847     1.00     1.00     1.00     0.00    -41.99
   50     0.0100    1.00000     -0.106     -2.835     1.00     1.00     1.00     0.00    -39.99
   49     0.0100    1.00000     -0.139     -2.241     1.00     1.00     1.00     0.00    -37.99
   48     0.0100    1.00000      0.751     -2.284     1.00     1.00     1.00     0.00    -35.99
   47     0.0100    1.00000      0.192     -1.929     1.00     1.00     1.00     0.00    -33.99
   46     0.0100    1.00000      0.364     -3.222     1.00     1.00     1.00     0.00    -31.99
   45     0.0100    1.00000     -0.421     -2.145     1.00     1.00     1.00     0.00    -29.99
   44     0.0100    1.00000      0.374     -1.910     1.00     1.00     1.00     0.00    -27.99
   43     0.0100    1.00000      0.017     -1.286     1.00     1.00     1.00     0.00    -25.99
   42     0.0100    1.00000     -0.386     -2.326     1.00     1.00     1.00     0.00    -23.99
   41     0.0100    1.00000      0.126     -0.833     1.00     1.00     1.00     0.00    -21.99
   40     0.0100    1.00000     -0.362     -1.206     1.00     1.00     1.00     0.00    -19.99
   39     0.0100    1.00000     -0.004     -0.678     1.00     1.00     1.00     0.00    -17.99
   38     0.0100    1.00000      0.130     -0.569     1.00     1.00     1.00     0.00    -15.99
   37     0.0100    1.00000      0.399     -1.270     1.00     1.00     1.00     0.00    -13.99
   36     0.0100    1.00000      0.055     -0.137     1.00     1.00     1.00     0.00    -11.99
   35     0.0100    1.00000      0.571      0.086     1.00     1.00     1.00     0.00     -9.99
   34     0.0100    1.00000      1.404      0.249     1.00     1.00     1.00     0.00     -7.99
   33     0.0100    1.00000      0.688      0.832     1.00     1.00     1.00     0.00     -5.99
   32     0.0100    1.00000      1.179      0.755     1.00     1.00     1.00     0.00     -3.99
   31     0.0100    1.00000      0.623      1.087     1.00     1.00     1.00     0.00     -1.99
   30     0.0100    1.00000      0.000      0.000     1.00     1.00     1.00     0.00     -0.00
   29     0.0100    1.00000     -0.538      0.440     1.00     1.00     1.00     0.00      2.00
   28     0.0100    1.00000     -0.373      1.091     1.00     1.00     1.00     0.00      4.00
   27     0.0100    1.00000     -0.793      0.974     1.00     1.00     1.00     0.00      6.00
   26     0.0100    1.00000     -1.299      0.755     1.00     1.00     1.00     0.00      8.00
   25     0.0100    1.00000     -2.301      0.946     1.00     1.00     1.00     0.00     10.00
   24     0.0100    1.00000     -1.280      1.087     1.00     1.00     1.00     0.00     12.00
   23     0.0100    1.00000     -2.790      0.996     1.00     1.00     1.00     0.00     14.00
   22     0.0100    1.00000     -1.977      0.437     1.00     1.00     1.00     0.00     16.00
   21     0.0100    1.00000     -2.699      0.564     1.00     1.00     1.00     0.00     18.00
   20     0.0100    1.00000     -2.062      0.929     1.00     1.00     1.00     0.00     20.00
   19     0.0100    1.00000     -2.068      0.942     1.00     1.00     1.00     0.00     22.00
   18     0.0100    1.00000     -2.067      0.846     1.00     1.00     1.00     0.00     24.00
   17     0.0100    1.00000     -2.325     -0.383     1.00     1.00     1.00     0.00     26.00
   16     0.0100    1.00000     -2.770      0.020     1.00     1.00     1.00     0.00     28.00
   15     0.0100    1.00000     -1.985     -0.698     1.00     1.00     1.00     0.00     29.99
   14     0.0100    1.00000     -2.274      0.196     1.00     1.00     1.00     0.00     32.00
   13     0.0100    1.00000     -1.071     -0.051     1.00     1.00     1.00     0.00     33.99
   12     0.0100    1.00000     -1.272     -0.362     1.00     1.00     1.00     0.00     35.99
   11     0.0100    1.00000     -0.670     -0.921     1.00     1.00     1.00     0.00     37.99
   10     0.0100    1.00000     -0.091     -0.806     1.00     1.00     1.00     0.00     39.99
    9     0.0100    1.00000     -0.150      0.499     1.00     1.00     1.00     0.00     41.99
    8     0.0100    1.00000     -0.158      0.334     1.00     1.00     1.00     0.00     43.99
    7     0.0100    1.00000      1.366     -0.313     1.00     1.00     1.00     0.00     45.99
    6     0.0100    1.00000      1.525      0.185     1.00     1.00     1.00     0.00     47.99
    5     0.0100    1.00000      1.894      0.101     1.00     1.00     1.00     0.00     50.00
    4     0.0100    1.00000      1.762      0.017     1.00     1.00     1.00     0.00     52.00
    3     0.0100    1.00000      1.981      0.723     1.00     1.00     1.00     0.00     53.99
    2     0.0100    1.00000      1.953      1.159     1.00     1.00     1.00     0.00     55.99
    1     0.0100    1.00000      0.924      1.152     1.00     1.00     1.00     0.00     58.00
    0     0.0100    1.00000      1.592      1.335     1.00     1.00     1.00     0.00     59.99
