# AreTomo Alignment / Priims bprmMn 
# RawSize = 512 512 61
# NumPatches = 0
# SEC     ROT         GMAG       TX          TY      SMEAN     SFIT    SCALE     BASE     TILT
   60     0.0100    1.00000     -2.573      2.578     1.00     1.00     1.00     0.00    -59.99
   59     0.0100    1.00000     -2.048      0.548     1.00     1.00     1.00     0.00    -57.99
   58     0.0100    1.00000     -2.807      1.555     1.00     1.00     1.00     0.00    -55.99
   57     0.0100    1.00000     -2.697      0.846     1.00     1.00     1.00     0.00    -53.99
   56     0.0100    1.00000     -2.879      2.035     1.00     1.00     1.00     0.00    -51.99
   55     0.0100    1.00000     -2.693      0.460     1.00     1.00     1.00     0.00    -49.99
   54     0.0100    1.00000     -2.071      0.220     1.00     1.00     1.00     0.00    -47.99
   53     0.0100    1.00000     -2.282      1.429     1.00     1.00     1.00     0.00    -45.99
   52     0.0100    1.00000     -1.756     -0.053     1.00     1.00     1.00     0.00    -43.99
   51     0.0100    1.00000     -1.284      0.876     1.00     1.00     1.00     0.00    -41.99
   50     0.0100    1.00000     -1.864      0.112     1.00     1.00     1.00     0.00    -39.99
   49     0.0100    1.00000     -0.135      0.377     1.00     1.00     1.00     0.00    -37.99
   48     0.0100    1.00000     -0.448     -0.086     1.00     1.00     1.00     0.00    -35.99
   47     0.0100    1.00000     -0.524     -0.881     1.00     1.00     1.00     0.00    -33.99
   46     0.0100    1.00000     -1.714     -0.431     1.00     1.00     1.00     0.00    -31.99
   45     0.0100    1.00000      0.108      0.298     1.00     1.00     1.00     0.00    -29.99
   44     0.0100    1.00000     -1.646     -0.906     1.00     1.00     1.00     0.00    -27.99
   43     0.0100    1.00000     -0.091     -1.345     1.00     1.00     1.00     0.00    -25.99
   42     0.0100    1.00000     -0.915     -0.849     1.00     1.00     1.00     0.00    -23.99
   41     0.0100    1.00000      1.137     -0.990     1.00     1.00     1.00     0.00    -21.99
   40     0.0100    1.00000     -0.161     -1.449     1.00     1.00     1.00     0.00    -19.99
   39     0.0100    1.00000     -0.531     -1.436     1.00     1.00     1.00     0.00    -17.99
   38     0.0100    1.00000     -0.215     -1.375     1.00     1.00     1.00     0.00    -15.99
   37     0.0100    1.00000      1.017     -0.565     1.00     1.00     1.00     0.00    -13.99
   36     0.0100    1.00000     -0.808     -0.062     1.00     1.00     1.00     0.00    -11.99
   35     0.0100    1.00000     -0.652     -0.511     1.00     1.00     1.00     0.00     -9.99
   34     0.0100    1.00000     -0.361     -0.364     1.00     1.00     1.00     0.00     -7.99
   33     0.0100    1.00000      0.011     -1.483     1.00     1.00     1.00     0.00     -5.99
   32     0.0100    1.00000     -1.318     -1.152     1.00     1.00     1.00     0.00     -3.99
   31     0.0100    1.00000     -0.026      0.004     1.00     1.00     1.00     0.00     -1.99
   30     0.0100    1.00000      0.000      0.000     1.00     1.00     1.00     0.00     -0.00
   29     0.0100    1.00000      0.949      0.783     1.00     1.00     1.00     0.00      2.00
   28     0.0100    1.00000     -0.810      0.827     1.00     1.00     1.00     0.00      4.00
   27     0.0100    1.00000      0.516      0.528     1.00     1.00     1.00     0.00      6.00
   26     0.0100    1.00000      1.098      0.807     1.00     1.00     1.00     0.00      8.00
   25     0.0100    1.00000      1.152      0.061     1.00     1.00     1.00     0.00     10.00
   24     0.0100    1.00000      1.034     -0.014     1.00     1.00     1.00     0.00     12.00
   23     0.0100    1.00000      0.258      1.213     1.00     1.00     1.00     0.00     14.00
   22     0.0100    1.00000     -0.939      0.612     1.00     1.00     1.00     0.00     16.00
   21     0.0100    1.00000      1.396      1.830     1.00     1.00     1.00     0.00     18.00
   20     0.0100    1.00000      0.618      1.475     1.00     1.00     1.00     0.00     20.00
   19     0.0100    1.00000      1.894      1.098     1.00     1.00     1.00     0.00     22.00
   18     0.0100    1.00000      0.612      2.633     1.00     1.00     1.00     0.00     24.00
   17     0.0100    1.00000      1.359      2.412     1.00     1.00     1.00     0.00     26.00
   16     0.0100    1.00000      0.489      1.871     1.00     1.00     1.00     0.00     28.00
   15     0.0100    1.00000      1.462      2.189     1.00     1.00     1.00     0.00     29.99
   14     0.0100    1.00000      1.419      0.318     1.00     1.00     1.00     0.00     32.00
   13     0.0100    1.00000      1.593      2.221     1.00     1.00     1.00     0.00     33.99
   12     0.0100    1.00000      0.359      1.753     1.00     1.00     1.00     0.00     35.99
   11     0.0100    1.00000      1.720      1.363     1.00     1.00     1.00     0.00     37.99
   10     0.0100    1.00000      0.900      2.626     1.00     1.00     1.00     0.00     39.99
    9     0.0100    1.00000      1.116      1.223     1.00     1.00     1.00     0.00     41.99
    8     0.0100    1.00000      1.466      1.769     1.00     1.00     1.00     0.00     43.99
    7     0.0100    1.00000      2.108      1.537     1.00     1.00     1.00     0.00     45.99
    6     0.0100    1.00000      2.194      1.758     1.00     1.00     1.00     0.00     47.99
    5     0.0100    1.00000      2.476      2.177     1.00     1.00     1.00     0.00     50.00
    4     0.0100    1.00000      2.758      0.819     1.00     1.00     1.00     0.00     52.00
    3     0.0100    1.00000      3.504      3.157     1.00     1.00     1.00     0.00     53.99
    2     0.0100    1.00000      3.133      1.891     1.00     1.00     1.00     0.00     55.99
    1     0.0100    1.00000      3.708      1.910     1.00     1.00     1.00     0.00     58.00
    0     0.0100    1.00000      4.322      2.401     1.00     1.00     1.00     0.00     59.99
