# AreTomo Alignment / Priims bprmMn 
# RawSize = 512 512 61
# NumPatches = 0
# SEC     ROT         GMAG       TX          TY      SMEAN     SFIT    SCALE     BASE     TILT
   60     0.0100    1.00000     -3.690      7.548     1.00     1.00     1.00     0.00    -59.99
   59     0.0100    1.00000     -3.593      6.310     1.00     1.00     1.00     0.00    -57.99
   58     0.0100    1.00000     -4.710      7.513     1.00     1.00     1.00     0.00    -55.99
   57     0.0100    1.00000     -5.666      7.131     1.00     1.00     1.00     0.00    -53.99
   56     0.0100    1.00000     -6.329      7.155     1.00     1.00     1.00     0.00    -51.99
   55     0.0100    1.00000     -6.732      5.997     1.00     1.00     1.00     0.00    -49.99
   54     0.0100    1.00000     -6.985      6.693     1.00     1.00     1.00     0.00    -47.99
   53     0.0100    1.00000     -6.155      6.182     1.00     1.00     1.00     0.00    -45.99
   52     0.0100    1.00000     -6.971      6.394     1.00     1.00     1.00     0.00    -43.99
   51     0.0100    1.00000     -7.126      4.983     1.00     1.00     1.00     0.00    -41.99
   50     0.0100    1.00000     -7.467      5.203     1.00     1.00     1.00     0.00    -39.99
   49     0.0100    1.00000     -7.557      6.288     1.00     1.00     1.00     0.00    -37.99
   48     0.0100    1.00000     -7.738      4.653     1.00     1.00     1.00     0.00    -35.99
   47     0.0100    1.00000     -8.121      6.939     1.00     1.00     1.00     0.00    -33.99
   46     0.0100    1.00000     -7.335      4.061     1.00     1.00     1.00     0.00    -31.99
   45     0.0100    1.00000     -7.183      3.826     1.00     1.00     1.00     0.00    -29.99
   44     0.0100    1.00000     -7.599      4.236     1.00     1.00     1.00     0.00    -27.99
   43     0.0100    1.00000     -6.076      3.727     1.00     1.00     1.00     0.00    -25.99
   42     0.0100    1.00000     -5.573      4.427     1.00     1.00     1.00     0.00    -23.99
   41     0.0100    1.00000     -7.128      4.856     1.00     1.00     1.00     0.00    -21.99
   40     0.0100    1.00000     -6.458      5.037     1.00     1.00     1.00     0.00    -19.99
   39     0.0100    1.00000     -4.851      2.400     1.00     1.00     1.00     0.00    -17.99
   38     0.0100    1.00000     -5.377      2.189     1.00     1.00     1.00     0.00    -15.99
   37     0.0100    1.00000     -5.491      2.441     1.00     1.00     1.00     0.00    -13.99
   36     0.0100    1.00000     -2.405      3.602     1.00     1.00     1.00     0.00    -11.99
   35     0.0100    1.00000     -4.281      2.885     1.00     1.00     1.00     0.00     -9.99
   34     0.0100    1.00000     -2.142      2.306     1.00     1.00     1.00     0.00     -7.99
   33     0.0100    1.00000     -2.687      2.224     1.00     1.00     1.00     0.00     -5.99
   32     0.0100    1.00000     -0.736      2.258     1.00     1.00     1.00     0.00     -3.99
   31     0.0100    1.00000     -1.354      1.456     1.00     1.00     1.00     0.00     -1.99
   30     0.0100    1.00000      0.000      0.000     1.00     1.00     1.00     0.00     -0.00
   29     0.0100    1.00000      0.772      1.202     1.00     1.00     1.00     0.00      2.00
   28     0.0100    1.00000      0.337      3.222     1.00     1.00     1.00     0.00      4.00
   27     0.0100    1.00000      2.907      3.203     1.00     1.00     1.00     0.00      6.00
   26     0.0100    1.00000      0.535      3.670     1.00     1.00     1.00     0.00      8.00
   25     0.0100    1.00000      3.307      1.438     1.00     1.00     1.00     0.00     10.00
   24     0.0100    1.00000      2.879      4.082     1.00     1.00     1.00     0.00     12.00
   23     0.0100    1.00000      2.657      3.354     1.00     1.00     1.00     0.00     14.00
   22     0.0100    1.00000      2.562      3.585     1.00     1.00     1.00     0.00     16.00
   21     0.0100    1.00000      4.373      4.274     1.00     1.00     1.00     0.00     18.00
   20     0.0100    1.00000      2.709      4.233     1.00     1.00     1.00     0.00     20.00
   19     0.0100    1.00000      3.171      3.833     1.00     1.00     1.00     0.00     22.00
   18     0.0100    1.00000      5.187      3.262     1.00     1.00     1.00     0.00     24.00
   17     0.0100    1.00000      3.528      4.729     1.00     1.00     1.00     0.00     26.00
   16     0.0100    1.00000      4.453      4.784     1.00     1.00     1.00     0.00     28.00
   15     0.0100    1.00000      4.492      4.743     1.00     1.00     1.00     0.00     29.99
   14     0.0100    1.00000      4.443      5.098     1.00     1.00     1.00     0.00     32.00
   13     0.0100    1.00000      3.878      4.660     1.00     1.00     1.00     0.00     33.99
   12     0.0100    1.00000      3.248      5.145     1.00     1.00     1.00     0.00     35.99
   11     0.0100    1.00000      3.756      5.383     1.00     1.00     1.00     0.00     37.99
   10     0.0100    1.00000      3.548      4.683     1.00     1.00     1.00     0.00     39.99
    9     0.0100    1.00000      4.428      6.835     1.00     1.00     1.00     0.00     41.99
    8     0.0100    1.00000      3.091      4.416     1.00     1.00     1.00     0.00     43.99
    7     0.0100    1.00000      3.989      7.587     1.00     1.00     1.00     0.00     45.99
    6     0.0100    1.00000      4.224      5.830     1.00     1.00     1.00     0.00     47.99
    5     0.0100    1.00000      1.919      6.681     1.00     1.00     1.00     0.00     50.00
    4     0.0100    1.00000      3.210      6.902     1.00     1.00     1.00     0.00     52.00
    3     0.0100    1.00000      3.159      6.610     1.00     1.00     1.00     0.00     53.99
    2     0.0100    1.00000      2.708      7.413     1.00     1.00     1.00     0.00     55.99
    1     0.0100    1.00000      2.971      6.328     1.00     1.00     1.00     0.00     58.00
    0     0.0100    1.00000      1.936      7.825     1.00     1.00     1.00     0.00     59.99
